# Crystal structure was read from "phono3py.yaml".
# Read frequency, weight, qpoint, and optionally grid_point.
# 300 K
      0.00000       0.00000       0.00000
    240.90085       5.64641       0.03539
    481.80171      20.77073       0.04301
    722.70256      29.83699       0.02805
    963.60342      36.53141       0.02702
   1204.50427      41.12884       0.01410
   1445.40513      44.12186       0.01143
   1686.30598      46.92520       0.01186
   1927.20684      49.84381       0.01233
   2168.10769      52.83490       0.01244
   2409.00854      55.80308       0.01216
   2649.90940      58.55634       0.01015
   2890.81025      60.71942       0.00819
   3131.71111      62.53249       0.00689
   3372.61196      64.05558       0.00581
   3613.51282      65.39031       0.00534
   3854.41367      66.63466       0.00500
   4095.31453      67.55306       0.00270
   4336.21538      68.20827       0.00274
   4577.11623      68.87383       0.00278
   4818.01709      69.54763       0.00281
   5058.91794      70.22779       0.00283
   5299.81880      70.91265       0.00285
   5540.71965      71.60082       0.00286
   5781.62051      72.29114       0.00287
   6022.52136      72.98267       0.00287
   6263.42222      73.67473       0.00287
   6504.32307      74.36685       0.00287
   6745.22392      75.05882       0.00287
   6986.12478      75.75067       0.00287
   7227.02563      76.44266       0.00287
   7467.92649      77.13527       0.00288
   7708.82734      77.82925       0.00288
   7949.72820      78.52556       0.00290
   8190.62905      79.22542       0.00291
   8431.52991      79.93027       0.00294
   8672.43076      80.64104       0.00296
   8913.33161      81.35773       0.00299
   9154.23247      82.08026       0.00301
   9395.13332      82.80863       0.00304
   9636.03418      83.54292       0.00306
   9876.93503      84.28326       0.00309
  10117.83589      85.02984       0.00311
  10358.73674      85.78294       0.00314
  10599.63760      86.54287       0.00317
  10840.53845      87.31005       0.00320
  11081.43930      88.08491       0.00323
  11322.34016      88.86799       0.00327
  11563.24101      89.65988       0.00331
  11804.14187      90.46123       0.00335
  12045.04272      91.26471       0.00331
  12285.94358      92.05774       0.00327
  12526.84443      92.83994       0.00322
  12767.74529      93.61113       0.00318
  13008.64614      94.37117       0.00313
  13249.54699      95.11965       0.00308
  13490.44785      95.85596       0.00303
  13731.34870      96.57953       0.00298
  13972.24956      97.28977       0.00292
  14213.15041      97.98614       0.00286
  14454.05127      98.66810       0.00280
  14694.95212      99.33513       0.00274
  14935.85297      99.98671       0.00267
  15176.75383     100.62235       0.00260
  15417.65468     101.24159       0.00254
  15658.55554     101.84397       0.00246
  15899.45639     102.42904       0.00239
  16140.35725     102.99637       0.00232
  16381.25810     103.54557       0.00224
  16622.15896     104.07623       0.00216
  16863.05981     104.58798       0.00208
  17103.96066     105.08046       0.00200
  17344.86152     105.55332       0.00192
  17585.76237     106.00624       0.00184
  17826.66323     106.43891       0.00175
  18067.56408     106.85102       0.00167
  18308.46494     107.24230       0.00158
  18549.36579     107.61248       0.00149
  18790.26665     107.96132       0.00140
  19031.16750     108.28859       0.00131
  19272.06835     108.59407       0.00122
  19512.96921     108.87757       0.00113
  19753.87006     109.13890       0.00104
  19994.77092     109.37789       0.00095
  20235.67177     109.59440       0.00085
  20476.57263     109.78828       0.00076
  20717.47348     109.95944       0.00066
  20958.37434     110.10775       0.00057
  21199.27519     110.23315       0.00047
  21440.17604     110.33555       0.00038
  21681.07690     110.41491       0.00028
  21921.97775     110.47118       0.00019
  22162.87861     110.50436       0.00009
  22403.77946     110.51871       0.00005
  22644.68032     110.52833       0.00003
  22885.58117     110.53485       0.00002
  23126.48203     110.53884       0.00001
  23367.38288     110.54091       0.00001
  23608.28373     110.54168       0.00000
  23849.18459     110.54180       0.00000
