# Crystal structure was read from "phono3py.yaml".
# Read frequency, weight, qpoint, and optionally grid_point.
# 100 K
0.000000 0.000000 0.000000 0.000000 0.000000 0.000000 0.000000 0.000000 0.000000 0.000000 0.000000 0.000000 0.000000
3143.588531 38.200164 38.200164 38.200164 0.000000 -0.000000 -0.000000 0.044220 0.044220 0.044220 0.000000 0.000000 -0.000000
6287.177061 123.609423 123.609423 123.609423 0.000000 0.000000 -0.000000 0.019704 0.019704 0.019704 0.000000 0.000000 -0.000000
9430.765592 180.603738 180.603738 180.603738 0.000000 0.000000 -0.000000 0.017268 0.017268 0.017268 0.000000 0.000000 -0.000000
12574.354123 213.240043 213.240043 213.240043 0.000000 0.000000 -0.000000 0.007994 0.007994 0.007994 0.000000 0.000000 -0.000000
15717.942653 239.006193 239.006193 239.006193 0.000000 0.000000 -0.000000 0.008299 0.008299 0.008299 0.000000 0.000000 -0.000000
18861.531184 264.947614 264.947614 264.947614 0.000000 0.000000 -0.000000 0.008123 0.008123 0.008123 0.000000 0.000000 -0.000000
22005.119715 288.245506 288.245506 288.245506 0.000000 0.000000 -0.000000 0.006530 0.006530 0.006530 0.000000 -0.000000 -0.000000
25148.708245 306.839503 306.839503 306.839503 0.000000 0.000000 -0.000000 0.005588 0.005588 0.005588 0.000000 -0.000000 -0.000000
28292.296776 323.406912 323.406912 323.406912 0.000000 0.000000 -0.000000 0.004884 0.004884 0.004884 0.000000 -0.000000 -0.000000
31435.885307 337.904817 337.904817 337.904817 0.000000 0.000000 -0.000000 0.004323 0.004323 0.004323 0.000000 -0.000000 -0.000000
34579.473837 350.741918 350.741918 350.741918 0.000000 0.000000 -0.000000 0.003930 0.003930 0.003930 0.000000 -0.000000 -0.000000
37723.062368 362.867231 362.867231 362.867231 0.000000 0.000000 -0.000000 0.003816 0.003816 0.003816 0.000000 -0.000000 -0.000000
40866.650899 374.824485 374.824485 374.824485 0.000000 0.000000 -0.000000 0.003796 0.003796 0.003796 0.000000 -0.000000 -0.000000
44010.239429 386.656050 386.656050 386.656050 0.000000 0.000000 -0.000000 0.003715 0.003715 0.003715 0.000000 -0.000000 -0.000000
47153.827960 398.056375 398.056375 398.056375 0.000000 0.000000 -0.000000 0.003517 0.003517 0.003517 0.000000 -0.000000 -0.000000
50297.416491 408.597789 408.597789 408.597789 0.000000 0.000000 -0.000000 0.003154 0.003154 0.003154 0.000000 -0.000000 -0.000000
53441.005021 417.929788 417.929788 417.929788 0.000000 0.000000 -0.000000 0.002811 0.002811 0.002811 0.000000 -0.000000 -0.000000
56584.593552 426.483338 426.483338 426.483338 0.000000 -0.000000 -0.000000 0.002671 0.002671 0.002671 0.000000 -0.000000 -0.000000
59728.182083 434.896222 434.896222 434.896222 0.000000 -0.000000 -0.000000 0.002681 0.002681 0.002681 0.000000 -0.000000 -0.000000
62871.770613 443.330208 443.330208 443.330208 0.000000 -0.000000 -0.000000 0.002684 0.002684 0.002684 0.000000 -0.000000 -0.000000
66015.359144 451.762085 451.762085 451.762085 0.000000 -0.000000 -0.000000 0.002680 0.002680 0.002680 0.000000 -0.000000 -0.000000
69158.947675 460.173876 460.173876 460.173876 0.000000 -0.000000 -0.000000 0.002671 0.002671 0.002671 0.000000 -0.000000 -0.000000
72302.536205 468.552979 468.552979 468.552979 0.000000 -0.000000 -0.000000 0.002659 0.002659 0.002659 0.000000 -0.000000 -0.000000
75446.124736 476.892170 476.892170 476.892170 0.000000 -0.000000 -0.000000 0.002646 0.002646 0.002646 0.000000 -0.000000 -0.000000
78589.713267 485.189597 485.189597 485.189597 0.000000 -0.000000 -0.000000 0.002633 0.002633 0.002633 0.000000 -0.000000 -0.000000
81733.301797 493.448788 493.448788 493.448788 0.000000 -0.000000 -0.000000 0.002622 0.002622 0.002622 0.000000 -0.000000 -0.000000
84876.890328 501.678641 501.678641 501.678641 0.000000 -0.000000 -0.000000 0.002615 0.002615 0.002615 0.000000 -0.000000 -0.000000
88020.478859 509.893435 509.893435 509.893435 0.000000 -0.000000 -0.000000 0.002613 0.002613 0.002613 0.000000 -0.000000 -0.000000
91164.067389 518.112819 518.112819 518.112819 0.000000 -0.000000 -0.000000 0.002618 0.002618 0.002618 0.000000 -0.000000 -0.000000
94307.655920 526.361823 526.361823 526.361823 0.000000 -0.000000 -0.000000 0.002632 0.002632 0.002632 0.000000 -0.000000 -0.000000
97451.244451 534.670849 534.670849 534.670849 0.000000 -0.000000 -0.000000 0.002656 0.002656 0.002656 0.000000 -0.000000 -0.000000
100594.832981 543.074927 543.074927 543.074927 0.000000 -0.000000 -0.000000 0.002691 0.002691 0.002691 0.000000 -0.000000 -0.000000
103738.421512 551.582292 551.582292 551.582292 0.000000 -0.000000 -0.000000 0.002721 0.002721 0.002721 0.000000 -0.000000 -0.000000
106882.010043 560.178118 560.178118 560.178118 0.000000 -0.000000 -0.000000 0.002747 0.002747 0.002747 0.000000 -0.000000 -0.000000
110025.598573 568.847061 568.847061 568.847061 0.000000 -0.000000 -0.000000 0.002768 0.002768 0.002768 0.000000 -0.000000 -0.000000
113169.187104 577.573591 577.573591 577.573591 0.000000 -0.000000 -0.000000 0.002783 0.002783 0.002783 0.000000 -0.000000 -0.000000
116312.775635 586.341995 586.341995 586.341995 0.000000 -0.000000 -0.000000 0.002794 0.002794 0.002794 0.000000 -0.000000 -0.000000
119456.364165 595.136372 595.136372 595.136372 0.000000 -0.000000 -0.000000 0.002800 0.002800 0.002800 0.000000 -0.000000 -0.000000
122599.952696 603.940639 603.940639 603.940639 0.000000 -0.000000 -0.000000 0.002801 0.002801 0.002801 0.000000 -0.000000 -0.000000
125743.541227 612.738527 612.738527 612.738527 0.000000 -0.000000 -0.000000 0.002796 0.002796 0.002796 0.000000 -0.000000 -0.000000
128887.129757 621.513581 621.513581 621.513581 0.000000 -0.000000 -0.000000 0.002786 0.002786 0.002786 0.000000 -0.000000 -0.000000
132030.718288 630.249164 630.249164 630.249164 0.000000 -0.000000 -0.000000 0.002771 0.002771 0.002771 0.000000 -0.000000 -0.000000
135174.306819 638.928452 638.928452 638.928452 0.000000 -0.000000 -0.000000 0.002750 0.002750 0.002750 0.000000 -0.000000 -0.000000
138317.895350 647.534436 647.534436 647.534436 0.000000 -0.000000 -0.000000 0.002724 0.002724 0.002724 0.000000 -0.000000 -0.000000
141461.483880 656.049924 656.049924 656.049924 0.000000 -0.000000 -0.000000 0.002693 0.002693 0.002693 0.000000 -0.000000 -0.000000
144605.072411 664.457537 664.457537 664.457537 0.000000 -0.000000 -0.000000 0.002656 0.002656 0.002656 0.000000 -0.000000 -0.000000
147748.660942 672.739712 672.739712 672.739712 0.000000 -0.000000 -0.000000 0.002613 0.002613 0.002613 0.000000 -0.000000 -0.000000
150892.249472 680.878702 680.878702 680.878702 0.000000 -0.000000 -0.000000 0.002564 0.002564 0.002564 0.000000 -0.000000 -0.000000
154035.838003 688.856575 688.856575 688.856575 0.000000 -0.000000 -0.000000 0.002510 0.002510 0.002510 0.000000 -0.000000 -0.000000
157179.426534 696.655211 696.655211 696.655211 0.000000 -0.000000 -0.000000 0.002450 0.002450 0.002450 0.000000 -0.000000 -0.000000
160323.015064 704.256311 704.256311 704.256311 0.000000 -0.000000 -0.000000 0.002385 0.002385 0.002385 0.000000 -0.000000 -0.000000
163466.603595 711.641385 711.641385 711.641385 0.000000 -0.000000 -0.000000 0.002313 0.002313 0.002313 0.000000 -0.000000 -0.000000
166610.192126 718.791763 718.791763 718.791763 0.000000 -0.000000 -0.000000 0.002235 0.002235 0.002235 0.000000 -0.000000 -0.000000
169753.780656 725.688588 725.688588 725.688588 0.000000 -0.000000 -0.000000 0.002152 0.002152 0.002152 0.000000 -0.000000 -0.000000
172897.369187 732.312817 732.312817 732.312817 0.000000 -0.000000 -0.000000 0.002062 0.002062 0.002062 0.000000 -0.000000 -0.000000
176040.957718 738.645225 738.645225 738.645225 0.000000 -0.000000 -0.000000 0.001966 0.001966 0.001966 0.000000 -0.000000 -0.000000
179184.546248 744.666400 744.666400 744.666400 0.000000 -0.000000 -0.000000 0.001864 0.001864 0.001864 0.000000 -0.000000 -0.000000
182328.134779 750.356746 750.356746 750.356746 0.000000 -0.000000 -0.000000 0.001755 0.001755 0.001755 0.000000 -0.000000 -0.000000
185471.723310 755.696481 755.696481 755.696481 0.000000 -0.000000 -0.000000 0.001641 0.001641 0.001641 0.000000 -0.000000 -0.000000
188615.311840 760.668824 760.668824 760.668824 0.000000 -0.000000 -0.000000 0.001537 0.001537 0.001537 0.000000 0.000000 -0.000000
191758.900371 765.548310 765.548310 765.548310 0.000000 -0.000000 -0.000000 0.001567 0.001567 0.001567 0.000000 0.000000 -0.000000
194902.488902 770.523764 770.523764 770.523764 0.000000 -0.000000 -0.000000 0.001598 0.001598 0.001598 0.000000 0.000000 -0.000000
198046.077432 775.486505 775.486505 775.486505 0.000000 -0.000000 -0.000000 0.001548 0.001548 0.001548 0.000000 0.000000 -0.000000
201189.665963 780.250685 780.250685 780.250685 0.000000 -0.000000 -0.000000 0.001483 0.001483 0.001483 0.000000 0.000000 -0.000000
204333.254494 784.813430 784.813430 784.813430 0.000000 -0.000000 -0.000000 0.001419 0.001419 0.001419 0.000000 0.000000 -0.000000
207476.843024 789.175082 789.175082 789.175082 0.000000 -0.000000 -0.000000 0.001356 0.001356 0.001356 0.000000 0.000000 -0.000000
210620.431555 793.336303 793.336303 793.336303 0.000000 -0.000000 -0.000000 0.001292 0.001292 0.001292 0.000000 0.000000 -0.000000
213764.020086 797.298070 797.298070 797.298070 0.000000 -0.000000 -0.000000 0.001229 0.001229 0.001229 0.000000 0.000000 -0.000000
216907.608616 801.061682 801.061682 801.061682 0.000000 -0.000000 -0.000000 0.001166 0.001166 0.001166 0.000000 0.000000 -0.000000
220051.197147 804.628754 804.628754 804.628754 0.000000 -0.000000 -0.000000 0.001104 0.001104 0.001104 0.000000 0.000000 -0.000000
223194.785678 808.001220 808.001220 808.001220 0.000000 -0.000000 -0.000000 0.001042 0.001042 0.001042 0.000000 0.000000 -0.000000
226338.374208 811.181335 811.181335 811.181335 0.000000 -0.000000 -0.000000 0.000981 0.000981 0.000981 0.000000 0.000000 -0.000000
229481.962739 814.171668 814.171668 814.171668 0.000000 -0.000000 -0.000000 0.000921 0.000921 0.000921 0.000000 0.000000 -0.000000
232625.551270 816.975110 816.975110 816.975110 0.000000 -0.000000 -0.000000 0.000862 0.000862 0.000862 0.000000 0.000000 -0.000000
235769.139800 819.594870 819.594870 819.594870 0.000000 -0.000000 -0.000000 0.000805 0.000805 0.000805 0.000000 0.000000 -0.000000
238912.728331 822.034473 822.034473 822.034473 0.000000 -0.000000 -0.000000 0.000748 0.000748 0.000748 0.000000 0.000000 -0.000000
242056.316862 824.297765 824.297765 824.297765 0.000000 -0.000000 -0.000000 0.000692 0.000692 0.000692 0.000000 0.000000 -0.000000
245199.905392 826.388911 826.388911 826.388911 0.000000 -0.000000 -0.000000 0.000638 0.000638 0.000638 0.000000 0.000000 -0.000000
248343.493923 828.312391 828.312391 828.312391 0.000000 -0.000000 -0.000000 0.000586 0.000586 0.000586 0.000000 0.000000 -0.000000
251487.082454 830.073007 830.073007 830.073007 0.000000 -0.000000 -0.000000 0.000535 0.000535 0.000535 0.000000 0.000000 -0.000000
254630.670984 831.675877 831.675877 831.675877 0.000000 -0.000000 -0.000000 0.000485 0.000485 0.000485 0.000000 0.000000 -0.000000
257774.259515 833.126440 833.126440 833.126440 0.000000 -0.000000 -0.000000 0.000438 0.000438 0.000438 0.000000 0.000000 -0.000000
260917.848046 834.430451 834.430451 834.430451 0.000000 -0.000000 -0.000000 0.000392 0.000392 0.000392 0.000000 0.000000 -0.000000
264061.436576 835.593985 835.593985 835.593985 0.000000 -0.000000 -0.000000 0.000348 0.000348 0.000348 0.000000 0.000000 -0.000000
267205.025107 836.623434 836.623434 836.623434 0.000000 -0.000000 -0.000000 0.000307 0.000307 0.000307 0.000000 0.000000 -0.000000
270348.613638 837.525511 837.525511 837.525511 0.000000 -0.000000 -0.000000 0.000267 0.000267 0.000267 0.000000 0.000000 -0.000000
273492.202168 838.307245 838.307245 838.307245 0.000000 -0.000000 -0.000000 0.000230 0.000230 0.000230 0.000000 0.000000 -0.000000
276635.790699 838.975985 838.975985 838.975985 0.000000 -0.000000 -0.000000 0.000196 0.000196 0.000196 0.000000 0.000000 -0.000000
279779.379230 839.539397 839.539397 839.539397 0.000000 -0.000000 -0.000000 0.000163 0.000163 0.000163 0.000000 0.000000 -0.000000
282922.967760 840.005466 840.005466 840.005466 0.000000 -0.000000 -0.000000 0.000134 0.000134 0.000134 0.000000 0.000000 -0.000000
286066.556291 840.382498 840.382498 840.382498 0.000000 -0.000000 -0.000000 0.000107 0.000107 0.000107 0.000000 0.000000 -0.000000
289210.144822 840.679112 840.679112 840.679112 0.000000 -0.000000 -0.000000 0.000083 0.000083 0.000083 0.000000 0.000000 -0.000000
292353.733352 840.904251 840.904251 840.904251 0.000000 -0.000000 -0.000000 0.000061 0.000061 0.000061 0.000000 0.000000 -0.000000
295497.321883 841.067174 841.067174 841.067174 0.000000 -0.000000 -0.000000 0.000043 0.000043 0.000043 0.000000 0.000000 -0.000000
298640.910414 841.177458 841.177458 841.177458 0.000000 -0.000000 -0.000000 0.000028 0.000028 0.000028 0.000000 0.000000 -0.000000
301784.498944 841.245000 841.245000 841.245000 0.000000 -0.000000 -0.000000 0.000016 0.000016 0.000016 0.000000 0.000000 -0.000000
304928.087475 841.280013 841.280013 841.280013 0.000000 -0.000000 -0.000000 0.000007 0.000007 0.000007 0.000000 0.000000 -0.000000
308071.676006 841.293031 841.293031 841.293031 0.000000 -0.000000 -0.000000 0.000002 0.000002 0.000002 0.000000 0.000000 -0.000000
311215.264536 841.294906 841.294906 841.294906 0.000000 -0.000000 -0.000000 0.000000 0.000000 0.000000 0.000000 0.000000 0.000000


# 200 K
0.000000 0.000000 0.000000 0.000000 0.000000 0.000000 0.000000 0.000000 0.000000 0.000000 0.000000 0.000000 0.000000
486.765823 10.719582 10.719582 10.719582 0.000000 -0.000000 -0.000000 0.045044 0.045044 0.045044 0.000000 0.000000 -0.000000
973.531646 33.435461 33.435461 33.435461 0.000000 -0.000000 -0.000000 0.038371 0.038371 0.038371 0.000000 0.000000 -0.000000
1460.297470 49.091335 49.091335 49.091335 0.000000 -0.000000 -0.000000 0.025960 0.025960 0.025960 0.000000 0.000000 -0.000000
1947.063293 61.234233 61.234233 61.234233 0.000000 -0.000000 -0.000000 0.018885 0.018885 0.018885 0.000000 0.000000 -0.000000
2433.829116 68.042931 68.042931 68.042931 0.000000 -0.000000 -0.000000 0.011974 0.011974 0.011974 0.000000 -0.000000 -0.000000
2920.594939 73.345395 73.345395 73.345395 0.000000 -0.000000 -0.000000 0.010779 0.010779 0.010779 0.000000 0.000000 -0.000000
3407.360762 78.698534 78.698534 78.698534 0.000000 -0.000000 -0.000000 0.011238 0.011238 0.011238 0.000000 0.000000 -0.000000
3894.126586 84.238618 84.238618 84.238618 0.000000 0.000000 -0.000000 0.011446 0.011446 0.011446 0.000000 0.000000 -0.000000
4380.892409 89.762511 89.762511 89.762511 0.000000 0.000000 -0.000000 0.011167 0.011167 0.011167 0.000000 0.000000 -0.000000
4867.658232 94.934814 94.934814 94.934814 0.000000 0.000000 -0.000000 0.009803 0.009803 0.009803 0.000000 -0.000000 -0.000000
5354.424055 99.175644 99.175644 99.175644 0.000000 -0.000000 -0.000000 0.007517 0.007517 0.007517 0.000000 -0.000000 -0.000000
5841.189879 102.534317 102.534317 102.534317 0.000000 -0.000000 -0.000000 0.006348 0.006348 0.006348 0.000000 -0.000000 -0.000000
6327.955702 105.411779 105.411779 105.411779 0.000000 -0.000000 -0.000000 0.005494 0.005494 0.005494 0.000000 -0.000000 -0.000000
6814.721525 107.970975 107.970975 107.970975 0.000000 -0.000000 -0.000000 0.005082 0.005082 0.005082 0.000000 -0.000000 -0.000000
7301.487348 110.384731 110.384731 110.384731 0.000000 -0.000000 -0.000000 0.004840 0.004840 0.004840 0.000000 -0.000000 -0.000000
7788.253171 112.669500 112.669500 112.669500 0.000000 -0.000000 -0.000000 0.004396 0.004396 0.004396 0.000000 -0.000000 -0.000000
8275.018995 114.352541 114.352541 114.352541 0.000000 -0.000000 -0.000000 0.002678 0.002678 0.002678 0.000000 -0.000000 -0.000000
8761.784818 115.667382 115.667382 115.667382 0.000000 -0.000000 -0.000000 0.002723 0.002723 0.002723 0.000000 -0.000000 -0.000000
9248.550641 117.001729 117.001729 117.001729 0.000000 -0.000000 -0.000000 0.002758 0.002758 0.002758 0.000000 -0.000000 -0.000000
9735.316464 118.351238 118.351238 118.351238 0.000000 -0.000000 -0.000000 0.002785 0.002785 0.002785 0.000000 -0.000000 -0.000000
10222.082287 119.712074 119.712074 119.712074 0.000000 -0.000000 -0.000000 0.002805 0.002805 0.002805 0.000000 -0.000000 -0.000000
10708.848111 121.080913 121.080913 121.080913 0.000000 -0.000000 -0.000000 0.002818 0.002818 0.002818 0.000000 -0.000000 -0.000000
11195.613934 122.454939 122.454939 122.454939 0.000000 -0.000000 -0.000000 0.002826 0.002826 0.002826 0.000000 -0.000000 -0.000000
11682.379757 123.831850 123.831850 123.831850 0.000000 -0.000000 -0.000000 0.002830 0.002830 0.002830 0.000000 -0.000000 -0.000000
12169.145580 125.209852 125.209852 125.209852 0.000000 -0.000000 -0.000000 0.002831 0.002831 0.002831 0.000000 -0.000000 -0.000000
12655.911403 126.587661 126.587661 126.587661 0.000000 -0.000000 -0.000000 0.002830 0.002830 0.002830 0.000000 -0.000000 -0.000000
13142.677227 127.964506 127.964506 127.964506 0.000000 -0.000000 -0.000000 0.002827 0.002827 0.002827 0.000000 -0.000000 -0.000000
13629.443050 129.340124 129.340124 129.340124 0.000000 -0.000000 -0.000000 0.002825 0.002825 0.002825 0.000000 -0.000000 -0.000000
14116.208873 130.714763 130.714763 130.714763 0.000000 -0.000000 -0.000000 0.002823 0.002823 0.002823 0.000000 -0.000000 -0.000000
14602.974696 132.089181 132.089181 132.089181 0.000000 -0.000000 -0.000000 0.002824 0.002824 0.002824 0.000000 -0.000000 -0.000000
15089.740520 133.464648 133.464648 133.464648 0.000000 -0.000000 -0.000000 0.002828 0.002828 0.002828 0.000000 -0.000000 -0.000000
15576.506343 134.842943 134.842943 134.842943 0.000000 -0.000000 -0.000000 0.002836 0.002836 0.002836 0.000000 -0.000000 -0.000000
16063.272166 136.226355 136.226355 136.226355 0.000000 -0.000000 -0.000000 0.002849 0.002849 0.002849 0.000000 -0.000000 -0.000000
16550.037989 137.617684 137.617684 137.617684 0.000000 -0.000000 -0.000000 0.002869 0.002869 0.002869 0.000000 -0.000000 -0.000000
17036.803812 139.019398 139.019398 139.019398 0.000000 -0.000000 -0.000000 0.002891 0.002891 0.002891 0.000000 -0.000000 -0.000000
17523.569636 140.431609 140.431609 140.431609 0.000000 -0.000000 -0.000000 0.002912 0.002912 0.002912 0.000000 -0.000000 -0.000000
18010.335459 141.854038 141.854038 141.854038 0.000000 -0.000000 -0.000000 0.002933 0.002933 0.002933 0.000000 -0.000000 -0.000000
18497.101282 143.286545 143.286545 143.286545 0.000000 -0.000000 -0.000000 0.002953 0.002953 0.002953 0.000000 -0.000000 -0.000000
18983.867105 144.729125 144.729125 144.729125 0.000000 -0.000000 -0.000000 0.002974 0.002974 0.002974 0.000000 -0.000000 -0.000000
19470.632928 146.181906 146.181906 146.181906 0.000000 -0.000000 -0.000000 0.002995 0.002995 0.002995 0.000000 -0.000000 -0.000000
19957.398752 147.645156 147.645156 147.645156 0.000000 -0.000000 -0.000000 0.003017 0.003017 0.003017 0.000000 -0.000000 -0.000000
20444.164575 149.119276 149.119276 149.119276 0.000000 -0.000000 -0.000000 0.003040 0.003040 0.003040 0.000000 -0.000000 -0.000000
20930.930398 150.604805 150.604805 150.604805 0.000000 -0.000000 -0.000000 0.003064 0.003064 0.003064 0.000000 -0.000000 -0.000000
21417.696221 152.102415 152.102415 152.102415 0.000000 -0.000000 -0.000000 0.003090 0.003090 0.003090 0.000000 -0.000000 -0.000000
21904.462045 153.612917 153.612917 153.612917 0.000000 -0.000000 -0.000000 0.003117 0.003117 0.003117 0.000000 -0.000000 -0.000000
22391.227868 155.137256 155.137256 155.137256 0.000000 -0.000000 -0.000000 0.003146 0.003146 0.003146 0.000000 -0.000000 -0.000000
22877.993691 156.676513 156.676513 156.676513 0.000000 -0.000000 -0.000000 0.003178 0.003178 0.003178 0.000000 -0.000000 -0.000000
23364.759514 158.231906 158.231906 158.231906 0.000000 -0.000000 -0.000000 0.003213 0.003213 0.003213 0.000000 -0.000000 -0.000000
23851.525337 159.804788 159.804788 159.804788 0.000000 -0.000000 -0.000000 0.003250 0.003250 0.003250 0.000000 -0.000000 -0.000000
24338.291161 161.396554 161.396554 161.396554 0.000000 -0.000000 -0.000000 0.003290 0.003290 0.003290 0.000000 -0.000000 -0.000000
24825.056984 163.000989 163.000989 163.000989 0.000000 -0.000000 -0.000000 0.003281 0.003281 0.003281 0.000000 -0.000000 -0.000000
